x,y,theta,speed,steer
0,2,-0.785398,0.370576,-0.119512
0.0262037,1.9738,-0.789986,0.372645,-0.224021
0.0524325,1.94733,-0.798739,0.373976,-0.300339
0.0785215,1.92053,-0.810679,0.37475,-0.301449
0.104342,1.89337,-0.822692,0.375553,-0.30259
0.129889,1.86584,-0.834778,0.376386,-0.303763
0.155157,1.83795,-0.846942,0.377248,-0.304967
0.180142,1.80968,-0.859184,0.378139,-0.306205
0.204836,1.78105,-0.871509,0.379058,-0.307477
0.229235,1.75204,-0.883918,0.380006,-0.308788
0.253332,1.72265,-0.896415,0.380983,-0.297758
0.277122,1.69289,-0.908468,0.38209,-0.275321
0.300618,1.66276,-0.919596,0.38342,-0.242666
0.323859,1.63227,-0.92938,0.385055,-0.201177
0.346898,1.60142,-0.937476,0.387066,-0.154429
0.369806,1.57022,-0.943688,0.389494,-0.102031
0.392661,1.53868,-0.947799,0.39239,-0.0455061
0.415556,1.50681,-0.949641,0.395794,0.0136032
0.43859,1.47462,-0.949086,0.399745,0.0737641
0.461873,1.44213,-0.946041,0.404276,0.133473
0.485519,1.40934,-0.940444,0.409417,0.191275
0.509651,1.37627,-0.932271,0.415193,0.245784
0.534397,1.34293,-0.921534,0.421624,0.295706
0.559888,1.30934,-0.908292,0.428722,0.331277
0.586259,1.27554,-0.89309,0.436396,0.333207
0.613621,1.24154,-0.877519,0.444316,0.335182
0.642016,1.20737,-0.861563,0.45249,0.337202
0.671484,1.17303,-0.845209,0.460929,0.339266
0.70207,1.13855,-0.828439,0.469643,0.341375
0.733819,1.10394,-0.811237,0.478644,0.343528
0.766779,1.06923,-0.793586,0.487941,0.345726
0.800998,1.03445,-0.775467,0.497546,0.347967
0.836527,0.999619,-0.756862,0.507472,0.35025
0.87342,0.964774,-0.73775,0.517728,0.352574
0.911731,0.92995,-0.718111,0.528328,0.354938
0.951517,0.895188,-0.697924,0.539282,0.357293
0.992835,0.860532,-0.677169,0.550602,0.356339
1.03575,0.826032,-0.65604,0.562239,0.352376
1.0803,0.791736,-0.634726,0.57414,0.346082
1.12653,0.757692,-0.613382,0.586257,0.337723
1.17447,0.723945,-0.592158,0.598541,0.328216
1.22413,0.690538,-0.571145,0.610955,0.317674
1.27553,0.65751,-0.550435,0.623461,0.306601
1.32867,0.624899,-0.530087,0.636029,0.295489
1.38354,0.592741,-0.510127,0.648636,0.285235
1.44015,0.561069,-0.490519,0.66128,0.27567
1.49848,0.529917,-0.471234,0.673956,0.267432
1.55853,0.49932,-0.452197,0.686676,0.26054
1.62029,0.469317,-0.433324,0.699454,0.254698
1.68378,0.439947,-0.414551,0.712299,0.249902
1.74897,0.411257,-0.395808,0.72522,0.246224
1.81589,0.383296,-0.377018,0.738233,0.243282
1.88453,0.356118,-0.358128,0.751339,0.240854
1.95489,0.329782,-0.339103,0.764537,0.238753
2.02699,0.30435,-0.319919,0.777818,0.236652
2.10083,0.279889,-0.30058,0.79116,0.234142
2.1764,0.256465,-0.281126,0.804527,0.231045
2.25369,0.234144,-0.261614,0.817872,0.226955
2.33269,0.212991,-0.242143,0.831131,0.221625
2.41338,0.193061,-0.222836,0.844226,0.215141
2.49572,0.174404,-0.203817,0.857076,0.207115
2.57965,0.157056,-0.185251,0.869583,0.198257
2.66512,0.141039,-0.167241,0.881676,0.187821
2.75206,0.126363,-0.149965,0.893249,0.176364
2.84038,0.113017,-0.133554,0.904221,0.163545
2.93,0.100977,-0.118171,0.9145,0.149599
3.02081,0.0901953,-0.103961,0.924005,0.135433
3.11271,0.0806066,-0.0909803,0.932701,0.120704
3.2056,0.0721325,-0.0793173,0.940544,0.106393
3.29936,0.0646802,-0.0689619,0.947542,0.0921448
3.39389,0.058151,-0.0599352,0.953695,0.0788901
3.48908,0.0524384,-0.0521627,0.95905,0.0662589
3.58486,0.047438,-0.045602,0.963646,0.0554684
3.68112,0.0430451,-0.0400858,0.967582,0.0455601
3.7778,0.0391675,-0.035538,0.970913,0.0370702
3.87483,0.0357178,-0.0318258,0.973724,0.0296692
3.97216,0.0326194,-0.0288466,0.976083,0.0236925
4.06972,0.0298041,-0.0264621,0.978073,0.0188328
4.1675,0.0272162,-0.0245629,0.979762,0.0152338
4.26544,0.0248099,-0.0230241,0.981225,0.0126244
4.36354,0.0225509,-0.021747,0.982517,0.0109932
4.46177,0.0204144,-0.0206334,0.983694,0.010116
4.56012,0.0183848,-0.0196075,0.984799,0.00987811
4.65858,0.016454,-0.0186046,0.985863,0.0101065
4.75715,0.01462,-0.0175773,0.986913,0.0106393
4.85582,0.0128853,-0.0164948,0.987961,0.0113536
4.95461,0.0112558,-0.0153384,0.989016,0.0120906
5.0535,0.00973883,-0.0141056,0.990076,0.0127718
5.15249,0.00834232,-0.0128019,0.991137,0.0132793
5.2516,0.00707351,-0.0114449,0.992187,0.0135698
5.35081,0.00593798,-0.0100568,0.993214,0.0135889
5.45013,0.00493914,-0.00866534,0.994203,0.0133162
5.54954,0.00407764,-0.00730041,0.995139,0.0127423
5.64906,0.00335116,-0.00599309,0.996007,0.0119131
5.74865,0.00275424,-0.00476979,0.996795,0.0108278
5.84833,0.00227879,-0.00365705,0.997492,0.00958194
5.94808,0.00191401,-0.00267167,0.998093,0.00817452
6.04789,0.00164735,-0.00183053,0.998593,0.00672705
6.14775,0.00146455,-0.00113798,0.998993,0.00523268
6.24765,0.00135087,-0.00059907,0.999296,0.00381409
6.34758,0.00129101,-0.000206139,0.999511,0.00245633
6.44753,0.0012704,4.69674e-05,0.999596,0.00126249
6.54749,0.0012751,0.000177069,0.99953,0.000210165
6.64744,0.0012928,0.000198725,0.999514,-0.000630774
6.74739,0.00131266,0.000133729,0.99954,-0.00128764
6.84735,0.00132603,1.04327e-06,0.999603,-0.00172844
6.94731,0.00132613,-0.000177076,0.999515,-0.00198138
7.04726,0.00130843,-0.000381243,0.999418,-0.00204969
7.1472,0.00127033,-0.000592429,0.999324,-0.00195903
7.24713,0.00121113,-0.000794255,0.999241,-0.00173944
7.34706,0.00113176,-0.000973442,0.999175,-0.00141115
7.44697,0.0010345,-0.0011188,0.999132,-0.00101947
7.54689,0.000922714,-0.00122381,0.999113,-0.000577727
7.6468,0.000800441,-0.00128332,0.99912,-0.000134613
7.74671,0.000672222,-0.00129718,0.999151,0.000303629
7.84663,0.000542614,-0.00126591,0.999206,0.000694931
7.94655,0.000416124,-0.00119432,0.999279,0.00103917
8.04647,0.000296778,-0.00108727,0.999369,0.00130765
8.14641,0.00018812,-0.000952544,0.999468,0.00150464
8.24636,9.2916e-05,-0.000797508,0.999574,0.00161775
8.34632,1.31991e-05,-0.000630801,0.999682,0.00165353
8.44628,-4.98609e-05,-0.000460388,0.999756,0.0016152
8.54626,-9.58885e-05,-0.000293913,0.999825,0.00150963
8.64624,-0.000125275,-0.000138309,0.999894,0.00135213
8.74623,-0.000139104,1.07177e-06,0.999959,0.00114829
8.84623,-0.000138997,0.000119448,0.9999,0.000920504
8.94622,-0.000127053,0.000214336,0.999856,0.000672058
9.0462,-0.000105623,0.00028361,0.999828,0.000426937
9.14618,-7.72667e-05,0.000327617,0.999814,0.000185811
9.24617,-4.45112e-05,0.000346769,0.999814,-3.03617e-05
9.34615,-9.84072e-06,0.000343639,0.999826,-0.000223264
9.44613,2.45172e-05,0.000320626,0.999833,-0.000378154
9.54611,5.65745e-05,0.000281648,0.999843,-0.000498399
9.6461,8.47349e-05,0.000230275,0.99986,-0.000576917
9.74608,0.000107759,0.000170807,0.999883,-0.000617899
9.84607,0.000124838,0.000107113,0.99991,-0.000621679
9.94606,0.000135548,4.30286e-05,0.999939,-0.000592402
10.0461,0.000139851,-1.80401e-05,0.99995,-0.000536276
10.1461,0.000138047,-7.33235e-05,0.999923,-0.000456704
10.246,0.000130715,-0.000120403,0.999902,-0.000363445
10.346,0.000118676,-0.000157868,0.999886,-0.000258713
10.446,0.000102891,-0.000184536,0.999878,-0.000153301
10.546,8.44397e-05,-0.000200338,0.999876,-4.80984e-05
10.646,6.44084e-05,-0.000205296,0.999879,4.72695e-05
10.746,4.38812e-05,-0.000200424,0.999888,0.000133115
10.846,2.38411e-05,-0.000186702,0.999901,0.000202532
10.946,5.17272e-06,-0.000165825,0.999917,0.000256721
11.046,-1.14084e-05,-0.000139361,0.999928,0.000292241
11.1459,-2.53434e-05,-0.000109235,0.999939,0.00031077
11.2459,-3.62663e-05,-7.71989e-05,0.999952,0.000312293
11.3459,-4.39858e-05,-4.50053e-05,0.999965,0.000298552
11.4459,-4.84862e-05,-1.42278e-05,0.999979,0.000272295
11.5459,-4.99089e-05,1.38432e-05,0.999979,0.000234984
11.6459,-4.85246e-05,3.80679e-05,0.999967,0.000191089
11.7459,-4.4718e-05,5.77672e-05,0.999959,0.000141571
11.8459,-3.89415e-05,7.23615e-05,0.999953,9.14639e-05
11.9459,-3.17057e-05,8.17904e-05,0.999951,4.11418e-05
12.0459,-2.3527e-05,8.60316e-05,0.999951,-4.82991e-06
12.1459,-1.49243e-05,8.55337e-05,0.999954,-4.66205e-05
12.2459,-6.37133e-06,8.07277e-05,0.999959,-8.08781e-05
12.3459,1.7011e-06,7.23901e-05,0.999964,-0.000108182
12.4459,8.93985e-06,6.12377e-05,0.999968,-0.000126771
12.5459,1.50634e-05,4.81689e-05,0.999972,-0.000137449
12.6459,1.98802e-05,3.39993e-05,0.999978,-0.000140057
12.7459,2.328e-05,1.95607e-05,0.999984,-0.000135436
12.8459,2.52361e-05,5.59845e-06,0.999991,-0.000124742
12.9459,2.57959e-05,-7.2614e-06,0.99999,-0.000108692
13.0459,2.50698e-05,-1.84666e-05,0.999984,-8.92876e-05
13.1459,2.32232e-05,-2.76714e-05,0.99998,-6.70172e-05
13.2459,2.04561e-05,-3.45803e-05,0.999978,-4.41922e-05
13.3459,1.69981e-05,-3.91361e-05,0.999976,-2.1028e-05
13.4459,1.30846e-05,-4.13039e-05,0.999976,3.38825e-07
13.5459,8.95431e-06,-4.12689e-05,0.999978,1.99514e-05
13.6459,4.82751e-06,-3.92121e-05,0.99998,3.62067e-05
13.7459,9.06378e-07,-3.54796e-05,0.999983,4.93468e-05
13.8459,-2.64152e-06,-3.03923e-05,0.999985,5.84929e-05
13.9459,-5.68071e-06,-2.43622e-05,0.999987,6.40021e-05
14.0459,-8.1169e-06,-1.77642e-05,0.99999,6.57396e-05
14.1459,-9.8933e-06,-1.0987e-05,0.999993,6.40893e-05
14.2459,-1.0992e-05,-4.37986e-06,0.999996,5.95401e-05
14.3459,-1.143e-05,1.75827e-06,0.999997,5.24262e-05
14.4459,-1.12541e-05,7.16302e-06,0.999994,4.36488e-05
14.5459,-1.05378e-05,1.16629e-05,0.999992,3.34406e-05
14.6459,-9.37157e-06,1.51103e-05,0.999991,2.28691e-05
14.7459,-7.86055e-06,1.74679e-05,0.99999,1.20423e-05
14.8459,-6.11377e-06,1.87094e-05,0.99999,1.96548e-06
14.9459,-4.24285e-06,1.8912e-05,0.99999,-7.37339e-06
15.0459,-2.35167e-06,1.81519e-05,0.999991,-1.52037e-05
15.1459,-5.36495e-07,1.65845e-05,0.999993,-2.1632e-05
15.2459,1.12194e-06,1.43544e-05,0.999993,-2.62178e-05
15.3459,2.55738e-06,1.16516e-05,0.999994,-2.91244e-05
15.4459,3.72253e-06,8.64908e-06,0.999996,-3.02579e-05
15.5459,4.58743e-06,5.52973e-06,0.999997,-2.97973e-05
15.6459,5.14041e-06,2.45785e-06,0.999998,-2.79446e-05
15.7459,5.38619e-06,-4.23024e-07,0.999999,-2.48587e-05
15.8459,5.34389e-06,-2.98578e-06,0.999998,-2.0943e-05
15.9459,5.04531e-06,-5.14484e-06,0.999997,-1.6311e-05
16.0459,4.53083e-06,-6.82639e-06,0.999996,-1.1454e-05
16.1459,3.84819e-06,-8.00721e-06,0.999996,-6.42817e-06
16.2459,3.04747e-06,-8.6699e-06,0.999996,-1.70533e-06
16.3459,2.18049e-06,-8.84571e-06,0.999996,2.71454e-06
16.4459,1.29592e-06,-8.56586e-06,0.999996,6.46195e-06
16.5459,4.39338e-07,-7.89968e-06,0.999997,9.58225e-06
16.6459,-3.50628e-07,-6.91182e-06,0.999997,1.18561e-05
16.7459,-1.04181e-06,-5.68955e-06,0.999998,1.33568e-05
16.8459,-1.61076e-06,-4.31256e-06,0.999998,1.40264e-05
16.9459,-2.04202e-06,-2.86655e-06,0.999999,1.39473e-05
17.0459,-2.32867e-06,-1.42869e-06,1,1.32017e-05
17.1459,-2.47154e-06,-6.76918e-08,1,1.18645e-05
17.2459,-2.47831e-06,1.15545e-06,1,1.01159e-05
17.3459,-2.36277e-06,2.19833e-06,0.999999,8.01063e-06
17.4459,-2.14293e-06,3.02416e-06,0.999999,5.7748e-06
17.5459,-1.84052e-06,3.6195e-06,0.999999,3.43705e-06
17.6459,-1.47857e-06,3.97384e-06,0.999999,1.21888e-06
17.7459,-1.08118e-06,4.0995e-06,0.999999,-8.77373e-07
17.8459,-6.71235e-07,4.00905e-06,0.999999,-2.67448e-06
17.9458,-2.70331e-07,3.73333e-06,0.999999,-4.19173e-06
18.0458,1.03001e-07,3.30119e-06,0.999999,-5.32004e-06
18.1458,4.3312e-07,2.75273e-06,0.999999,-6.09259e-06
18.2458,7.08394e-07,2.12463e-06,1,-6.47521e-06
18.3458,9.20857e-07,1.45708e-06,1,-6.50615e-06
18.4458,1.06657e-06,7.86348e-07,1,-6.21783e-06
18.5458,1.1452e-06,1.45333e-07,1,-5.64563e-06
18.6458,1.15973e-06,-4.3669e-07,1,-4.86964e-06
18.7458,1.11606e-06,-9.38716e-07,1,-3.91642e-06
18.8458,1.02219e-06,-1.34247e-06,1,-2.88981e-06
18.9458,8.87945e-07,-1.64039e-06,1,-1.80439e-06
19.0458,7.23906e-07,-1.82641e-06,1,-7.64086e-07
19.1458,5.41266e-07,-1.90518e-06,1,2.28828e-07
19.2458,3.50747e-07,-1.88159e-06,1,1.08942e-06
19.3458,1.62588e-07,-1.76928e-06,1,1.82573e-06
19.4458,-1.43396e-08,-1.58106e-06,1,2.38369e-06
19.5458,-1.72446e-07,-1.33532e-06,1,2.7782e-06
19.6458,-3.05978e-07,-1.04891e-06,1,2.98997e-06
19.7458,-4.10868e-07,-7.40663e-07,1,3.03666e-06
19.8458,-4.84935e-07,-4.27605e-07,1,2.93057e-06
19.9458,-5.27695e-07,-1.25484e-07,1,2.68836e-06
20.0459,-5.40244e-07,1.51666e-07,1,2.34549e-06
20.1459,-5.25077e-07,3.9347e-07,1,1.91479e-06
20.2459,-4.8573e-07,5.90871e-07,1,1.44389e-06
20.3459,-4.26643e-07,7.39726e-07,1,9.40172e-07
20.4459,-3.5267e-07,8.36651e-07,1,4.52361e-07
20.5459,-2.69005e-07,8.83286e-07,1,-1.79201e-08
20.6459,-1.80677e-07,8.81438e-07,1,-4.29984e-07
20.7459,-9.25327e-08,8.3711e-07,1,-7.87134e-07
20.8459,-8.82167e-09,7.55962e-07,1,-1.06263e-06
20.9459,6.67746e-08,6.46413e-07,1,-1.26313e-06
21.0459,1.31416e-07,5.16193e-07,1,-1.37804e-06
21.1459,1.83035e-07,3.74128e-07,1,-1.4155e-06
21.2459,2.20448e-07,2.28199e-07,1,-1.37987e-06
21.3459,2.43268e-07,8.59443e-08,1,-1.27901e-06
21.4459,2.51863e-07,-4.59126e-08,1,-1.12852e-06
21.5459,2.47271e-07,-1.62255e-07,1,-9.34591e-07
21.6459,2.31046e-07,-2.58605e-07,1,-7.19041e-07
21.7459,2.05185e-07,-3.32733e-07,1,-4.85577e-07
21.8459,1.71912e-07,-3.82792e-07,1,-2.57039e-07
21.9459,1.33633e-07,-4.09291e-07,1,-3.44511e-08
22.0459,9.27035e-08,-4.12843e-07,1,1.62708e-07
22.1459,5.14191e-08,-3.96069e-07,1,3.3576e-07
22.2459,1.18122e-08,-3.61454e-07,1,4.71503e-07
22.3459,-2.43333e-08,-3.12846e-07,1,5.72911e-07
22.4459,-5.56179e-08,-2.53783e-07,1,6.3426e-07
22.5459,-8.09962e-08,-1.88395e-07,1,6.59308e-07
22.6459,-9.98357e-08,-1.20425e-07,1,6.49413e-07
22.7459,-1.11878e-07,-5.34754e-08,1,6.08278e-07
22.8459,-1.17226e-07,9.2337e-09,1,5.42721e-07
22.9459,-1.16302e-07,6.51844e-08,1,4.55725e-07
23.0459,-1.09784e-07,1.12166e-07,1,3.57265e-07
23.1459,-9.85673e-08,1.48998e-07,1,2.49195e-07
23.2459,-8.36675e-08,1.74688e-07,1,1.42211e-07
23.3459,-6.61987e-08,1.89349e-07,1,3.692e-08
23.4459,-4.72638e-08,1.93155e-07,1,-5.73592e-08
23.5459,-2.79483e-08,1.87242e-07,1,-1.41137e-07
23.6459,-9.22406e-09,1.72692e-07,1,-2.07909e-07
23.7459,8.04512e-09,1.51258e-07,1,-2.58995e-07
23.8459,2.31709e-08,1.24557e-07,1,-2.91351e-07
23.9459,3.56266e-08,9.4521e-08,1,-3.06707e-07
24.0459,4.50788e-08,6.29017e-08,1,-3.05369e-07
24.1459,5.13689e-08,3.14203e-08,1,-2.89082e-07
24.2459,5.4511e-08,1.61807e-09,1,-2.60796e-07
24.3459,5.46728e-08,-2.52682e-08,1,-2.21951e-07
24.4459,5.21459e-08,-4.81497e-08,1,-1.77092e-07
24.5459,4.7331e-08,-6.64067e-08,1,-1.27148e-07
24.6459,4.06903e-08,-7.95147e-08,1,-7.71191e-08
24.7459,3.27388e-08,-8.74651e-08,1,-2.73529e-08
24.8459,2.39923e-08,-9.0285e-08,1,1.76968e-08
24.9459,1.49638e-08,-8.84606e-08,1,5.82154e-08
25.0459,6.11772e-09,-8.2459e-08,1,9.10054e-08
25.1459,-2.12819e-09,-7.3077e-08,1,1.16648e-07
25.2459,-9.4359e-09,-6.10515e-08,1,1.33543e-07
25.3459,-1.55411e-08,-4.72841e-08,1,1.42486e-07
25.4459,-2.02695e-08,-3.25948e-08,1,1.4346e-07
25.5459,-2.3529e-08,-1.7805e-08,1,1.37286e-07
25.6459,-2.53095e-08,-3.65181e-09,1,1.25228e-07
25.7459,-2.56746e-08,9.25827e-09,1,1.07977e-07
25.8459,-2.47488e-08,2.03899e-08,1,8.76008e-08
25.9459,-2.27098e-08,2.94209e-08,1,6.45613e-08
26.0459,-1.97677e-08,3.60767e-08,1,4.11949e-08
26.1459,-1.616e-08,4.03236e-08,1,1.76936e-08
26.2459,-1.21277e-08,4.21477e-08,1,-3.81536e-09
26.3459,-7.9129e-09,4.17544e-08,1,-2.3393e-08
26.4459,-3.73745e-09,3.93427e-08,1,-3.94698e-08
26.5459,1.96824e-10,3.52737e-08,1,-5.22998e-08
26.6459,3.7242e-09,2.98819e-08,1,-6.10508e-08
26.7459,6.71239e-09,2.3588e-08,1,-6.60862e-08
26.8459,9.0712e-09,1.6775e-08,1,-6.7321e-08
26.9459,1.07487e-08,9.8347e-09,1,-6.51406e-08
27.0459,1.17322e-08,3.11917e-09,1,-6.00791e-08
27.1459,1.20441e-08,-3.07456e-09,1,-5.2469e-08
27.2459,1.17366e-08,-8.48375e-09,1,-4.32468e-08
27.3459,1.08883e-08,-1.29422e-08,1,-3.26417e-08
27.4459,9.59404e-09,-1.63073e-08,1,-2.17439e-08
27.5459,7.9633e-09,-1.8549e-08,1,-1.06573e-08
27.6459,6.10841e-09,-1.96477e-08,1,-3.97255e-10
27.7459,4.14364e-09,-1.96886e-08,1,9.05247e-09
27.8459,2.17478e-09,-1.87554e-08,1,1.69227e-08
27.9459,2.99239e-10,-1.70108e-08,1,2.33235e-08
28.0459,-1.40184e-09,-1.46063e-08,1,2.7825e-08
28.1459,-2.86247e-09,-1.17377e-08,1,3.05932e-08
28.2459,-4.03624e-09,-8.58376e-09,1,3.15506e-08
28.3459,-4.89461e-09,-5.33112e-09,1,3.08779e-08
28.4459,-5.42773e-09,-2.14782e-09,1,2.87968e-08
28.5459,-5.64251e-09,8.20917e-10,1,2.54667e-08
28.6459,-5.56042e-09,3.44636e-09,1,2.13104e-08
28.7459,-5.21578e-09,5.6433e-09,1,1.64412e-08
28.8459,-4.65145e-09,7.33827e-09,1,1.1367e-08
28.9459,-3.91762e-09,8.51013e-09,1,6.1433e-09
29.0459,-3.06661e-09,9.14346e-09,1,1.25404e-09
29.1459,-2.15226e-09,9.27274e-09,1,-3.30224e-09
29.2459,-1.22499e-09,8.93231e-09,1,-7.14921e-09
29.3459,-3.31754e-10,8.19527e-09,1,-1.03341e-08
29.4459,4.87774e-10,7.1299e-09,1,-1.26362e-08
29.5459,1.20077e-09,5.8272e-09,1,-1.41311e-08
29.6459,1.78349e-09,4.37039e-09,1,-1.47642e-08
29.7459,2.22053e-09,2.84831e-09,1,-1.46201e-08
29.8459,2.50536e-09,1.34108e-09,1,-1.37885e-08
29.9459,2.63947e-09,-8.04188e-11,1,-1.23459e-08
30.0459,2.63142e-09,-1.3532e-09,1,-1.04821e-08
30.1459,2.4961e-09,-2.43383e-09,1,-8.25315e-09
30.2459,2.25272e-09,-3.28467e-09,1,-5.89508e-09
30.3459,1.92425e-09,-3.89241e-09,1,-3.43721e-09
30.4459,1.53501e-09,-4.24676e-09,1,-1.10995e-09
30.5459,1.11033e-09,-4.36119e-09,1,1.08438e-09
30.6459,6.74215e-10,-4.2494e-09,1,2.96198e-09
30.7459,2.49274e-10,-3.94404e-09,1,4.54276e-09
30.8459,-1.4513e-10,-3.47571e-09,1,5.71414e-09
30.9459,-4.92702e-10,-2.88663e-09,1,6.51035e-09
31.0459,-7.81365e-10,-2.21546e-09,1,6.89692e-09
31.1459,-1.00291e-09,-1.50443e-09,1,6.91341e-09
31.2459,-1.15335e-09,-7.91709e-10,1,6.59481e-09
31.3459,-1.23253e-09,-1.11831e-10,1,5.97776e-09
31.4459,-1.24371e-09,5.04433e-10,1,5.14701e-09
31.5459,-1.19326e-09,1.03505e-09,1,4.13018e-09
31.6459,-1.08976e-09,1.46085e-09,1,3.03679e-09
31.7459,-9.43675e-10,1.77392e-09,1,1.88213e-09
31.8459,-7.66283e-10,1.96795e-09,1,7.75774e-10
31.9459,-5.69488e-10,2.04793e-09,1,-2.79741e-10
32.0459,-3.64695e-10,2.01909e-09,1,-1.19478e-09
32.1459,-1.62786e-10,1.89591e-09,1,-1.97757e-09
32.2459,2.68058e-11,1.69204e-09,1,-2.57096e-09
32.3459,1.9601e-10,1.42699e-09,1,-2.99038e-09
32.4459,3.3871e-10,1.11871e-09,1,-3.21536e-09
32.5459,4.5058e-10,7.87226e-10,1,-3.26434e-09
32.6459,5.29303e-10,4.50696e-10,1,-3.15025e-09
32.7459,5.74373e-10,1.25927e-10,1,-2.89062e-09
32.8459,5.86965e-10,-1.72075e-10,1,-2.52303e-09
32.9459,5.69758e-10,-4.32181e-10,1,-2.06105e-09
33.0459,5.2654e-10,-6.44661e-10,1,-1.55538e-09
33.1459,4.62073e-10,-8.0501e-10,1,-1.01392e-09
33.2459,3.81572e-10,-9.09537e-10,1,-4.88714e-10
33.3459,2.90619e-10,-9.5992e-10,1,1.83422e-11
33.4459,1.94626e-10,-9.58029e-10,1,4.63603e-10
33.5459,9.88234e-11,-9.10235e-10,1,8.50389e-10
33.6459,7.79981e-12,-8.22566e-10,1,1.14979e-09
33.7459,-7.44569e-11,-7.04031e-10,1,1.36875e-09
33.8459,-1.4486e-10,-5.62923e-10,1,1.50071e-09
33.9459,-2.01152e-10,-4.0821e-10,1,1.54258e-09
34.0459,-2.41973e-10,-2.4918e-10,1,1.50374e-09
34.1459,-2.66891e-10,-9.41553e-11,1,1.396e-09
34.2459,-2.76307e-10,4.97621e-11,1,1.22745e-09
34.3459,-2.71331e-10,1.76303e-10,1,1.01968e-09
34.4459,-2.537e-10,2.81425e-10,1,7.78273e-10
34.5459,-2.25558e-10,3.61659e-10,1,5.28676e-10
34.6459,-1.89392e-10,4.16162e-10,1,2.73441e-10
34.7459,-1.47776e-10,4.44352e-10,1,3.64034e-11
34.8459,-1.03341e-10,4.48105e-10,1,-1.8278e-10
34.9459,-5.85301e-11,4.29261e-10,1,-3.65957e-10
35.0459,-1.56039e-11,3.91534e-10,1,-5.15727e-10
35.1459,2.35495e-11,3.38366e-10,1,-6.21846e-10
35.2459,5.73861e-11,2.74258e-10,1,-6.88243e-10
35.3459,8.48119e-11,2.03305e-10,1,-7.12908e-10
35.4459,1.05142e-10,1.29809e-10,1,-7.00109e-10
35.5459,1.18123e-10,5.76331e-11,1,-6.54815e-10
35.6459,1.23887e-10,-9.87373e-12,1,-5.80779e-10
35.7459,1.22899e-10,-6.97479e-11,1,-4.87656e-10
35.8459,1.15925e-10,-1.20022e-10,1,-3.78089e-10
35.9459,1.03922e-10,-1.59e-10,1,-2.63717e-10
36.0459,8.80223e-11,-1.86187e-10,1,-1.45807e-10
36.1459,6.94035e-11,-2.01219e-10,1,-3.54416e-11
36.2459,4.92816e-11,-2.04873e-10,1,6.74495e-11
36.3459,2.87943e-11,-1.97919e-10,1,1.5427e-10
36.4459,9.00234e-12,-1.82015e-10,1,2.26152e-10
36.5459,-9.1992e-12,-1.58701e-10,1,2.78079e-10
36.6459,-2.50693e-11,-1.30033e-10,1,3.11827e-10
36.7459,-3.80726e-11,-9.78855e-11,1,3.26177e-10
36.8459,-4.78611e-11,-6.4259e-11,1,3.23095e-10
36.9459,-5.4287e-11,-3.09502e-11,1,3.04635e-10
37.0459,-5.73821e-11,4.55555e-13,1,2.72554e-10
37.1459,-5.73365e-11,2.85539e-11,1,2.31154e-10
37.2459,-5.44811e-11,5.23843e-11,1,1.81701e-10
